times(s), positions(rads)
4.526400000000000290e+01,6.426237320056316094e-11
4.556400000000000006e+01,6.555023190912834252e-11
4.593399999999999750e+01,6.714628852932946756e-11
4.636399999999999721e+01,6.901146321069973055e-11
4.666400000000000148e+01,7.031886184449831489e-11
4.700399999999999778e+01,7.180744887591572478e-11
4.739399999999999835e+01,7.352340958277636673e-11
4.785399999999999920e+01,7.555911452072905377e-11
4.821399999999999864e+01,7.716138838986807968e-11
4.857399999999999807e+01,7.877165586478440673e-11
4.897399999999999665e+01,8.056844080783776008e-11
4.929399999999999693e+01,8.201350709668986383e-11
4.968399999999999750e+01,8.378275850873251329e-11
5.002400000000000091e+01,8.533262985110923182e-11
5.038400000000000034e+01,8.698108899807266425e-11
5.077400000000000091e+01,8.877609758428661735e-11
5.110399999999999920e+01,9.030109993091173237e-11
5.144400000000000261e+01,9.188028116113855503e-11
5.179399999999999693e+01,9.351186491812768509e-11
5.210399999999999920e+01,9.496314845591768972e-11
5.242399999999999949e+01,9.646772269888970186e-11
5.283400000000000318e+01,9.840395165383597487e-11
5.320400000000000063e+01,1.001598803895831225e-10
5.360399999999999920e+01,1.020676876350989914e-10
5.396399999999999864e+01,1.037916419477369345e-10
5.433400000000000318e+01,1.055724396792356856e-10
5.468399999999999750e+01,1.072644195687644242e-10
5.508400000000000318e+01,1.092068657726485981e-10
5.554399999999999693e+01,1.114512926392308145e-10
5.595400000000000063e+01,1.134630167598515982e-10
5.637400000000000233e+01,1.155342488345922902e-10
5.682399999999999807e+01,1.177644648464593047e-10
5.722399999999999665e+01,1.197566490418466856e-10
5.760399999999999920e+01,1.216582390384246537e-10
5.804399999999999693e+01,1.238706914818976657e-10
5.843399999999999750e+01,1.258406712167925434e-10
5.879399999999999693e+01,1.276676542261157010e-10
5.932399999999999807e+01,1.303712693356828822e-10
5.978399999999999892e+01,1.327302712184064148e-10
6.023400000000000176e+01,1.350501932506631420e-10
6.068399999999999750e+01,1.373825497807956708e-10
6.107399999999999807e+01,1.394129256482301571e-10
6.159400000000000119e+01,1.421343043261913408e-10
6.194400000000000261e+01,1.439746100118100003e-10
6.241400000000000148e+01,1.464570686948718503e-10
6.285399999999999920e+01,1.487929779386831797e-10
6.325399999999999778e+01,1.509254943243831804e-10
6.373400000000000176e+01,1.534976590278347430e-10
6.418399999999999750e+01,1.559206097567766847e-10
6.463400000000000034e+01,-5.890453212955835127e-01
6.501399999999999579e+01,-2.774548366029066848e+00
6.536400000000000432e+01,-4.787641509328500966e+00
6.570399999999999352e+01,-6.743217706736566619e+00
6.603400000000000603e+01,-8.641276958194749724e+00
6.637399999999999523e+01,-1.059685315762883207e+01
6.676399999999999579e+01,-1.284001409362145374e+01
6.716400000000000148e+01,-1.514069197818344392e+01
6.748399999999999466e+01,-1.698123428686326264e+01
6.779399999999999693e+01,-1.876425964939494406e+01
6.819400000000000261e+01,-2.106493753781819578e+01
6.852400000000000091e+01,-2.296299679689076001e+01
6.893399999999999750e+01,-2.532119163548635754e+01
6.932399999999999807e+01,-2.756435258100259489e+01
6.964400000000000546e+01,-2.940489489634432374e+01
7.007399999999999807e+01,-3.187812363421928907e+01
7.039400000000000546e+01,-3.371866595196938476e+01
7.074399999999999977e+01,-3.573175911308734953e+01
7.109399999999999409e+01,-3.774485227546691135e+01
7.138400000000000034e+01,-3.941284375374979732e+01
7.172400000000000375e+01,-4.136841997069093679e+01
7.210399999999999920e+01,-4.355406397929587570e+01
7.263400000000000034e+01,-4.660246220409040774e+01
7.296399999999999864e+01,-4.850052147751977571e+01
7.333400000000000318e+01,-5.062864854294883799e+01
7.373399999999999466e+01,-5.292932645306709105e+01
7.400400000000000489e+01,-5.448228404321824314e+01
7.436400000000000432e+01,-5.655289416463661212e+01
7.464400000000000546e+01,-5.816336870434749073e+01
7.507399999999999807e+01,-6.063659746323392596e+01
7.540399999999999636e+01,-6.253465674462526636e+01
7.582399999999999807e+01,-6.495036855875019910e+01
7.623399999999999466e+01,-6.730856342659238578e+01
7.655400000000000205e+01,-6.914910576363570271e+01
7.686400000000000432e+01,-7.093213115359047549e+01
7.718399999999999750e+01,-7.277267349257196827e+01
7.747400000000000375e+01,-7.444066498821041478e+01
7.777400000000000091e+01,-7.616617343276355712e+01
7.808400000000000318e+01,-7.794919882649195131e+01
7.846399999999999864e+01,-8.013484285870697477e+01
7.877400000000000091e+01,-8.191786825446973808e+01
7.914400000000000546e+01,-8.404599534098595370e+01
7.953400000000000603e+01,-8.628915632550049963e+01
7.985399999999999920e+01,-8.812969867289341153e+01
8.024399999999999977e+01,-9.037285966013523364e+01
8.064400000000000546e+01,-9.267353759729336105e+01
8.099399999999999977e+01,-9.468663079359173196e+01
8.154399999999999693e+01,-9.785006296165852291e+01
8.204399999999999693e+01,-1.007259103897697941e+02
8.234399999999999409e+01,-1.024514188478077727e+02
8.275400000000000489e+01,-1.048096137418349798e+02
8.320399999999999352e+01,-1.073978764323349964e+02
8.365399999999999636e+01,-1.099861391248561233e+02
8.405400000000000205e+01,-1.122868170754016148e+02
8.457399999999999807e+01,-1.152776984134306275e+02
8.500400000000000489e+01,-1.177509272141694225e+02
8.541400000000000148e+01,-1.201091221188809897e+02
8.587399999999999523e+01,-1.227549017701145146e+02
8.619400000000000261e+01,-1.245954441373998236e+02
8.652400000000000091e+01,-1.264935034546610524e+02
8.686400000000000432e+01,-1.284490797221445746e+02
8.725400000000000489e+01,-1.306922407361606133e+02
8.757399999999999807e+01,-1.325327831077019880e+02
8.796399999999999864e+01,-1.347759441244735115e+02
8.845399999999999352e+01,-1.375942746347688228e+02
8.883400000000000318e+01,-1.397799187056064341e+02
8.913400000000000034e+01,-1.415054271835972770e+02
8.952400000000000091e+01,-1.437485882062906057e+02
8.991400000000000148e+01,-1.459917492304654445e+02
9.025400000000000489e+01,-1.479473255091692181e+02
9.067400000000000659e+01,-1.503630373844610801e+02
9.103400000000000603e+01,-1.524336475646190650e+02
9.141400000000000148e+01,-1.546192916450272890e+02
9.172400000000000375e+01,-1.564023170801668812e+02
9.201399999999999579e+01,-1.580703086170334473e+02
9.233400000000000318e+01,-1.599108510036078030e+02
9.264400000000000546e+01,-1.616938764414770162e+02
9.290399999999999636e+01,-1.631893171320608644e+02
9.319400000000000261e+01,-1.648573086723034180e+02
9.353400000000000603e+01,-1.668128849619230323e+02
9.385399999999999920e+01,-1.686534273532238046e+02
9.422400000000000375e+01,-1.707815544943492512e+02
9.458400000000000318e+01,-1.728521646870790107e+02
9.502400000000000091e+01,-1.753829104798797971e+02
9.534399999999999409e+01,-1.772234528758028773e+02
9.565399999999999636e+01,-1.790064783228699810e+02
9.592400000000000659e+01,-1.805594359710392780e+02
9.629399999999999693e+01,-1.826875631196847394e+02
9.661400000000000432e+01,-1.845281055196493583e+02
9.691400000000000148e+01,-1.862536140204585990e+02
9.718399999999999750e+01,-1.878065716720209934e+02
9.756399999999999295e+01,-1.899922157753555325e+02
9.796399999999999864e+01,-1.922928937803596625e+02
9.837399999999999523e+01,-1.946510887372019170e+02
9.876399999999999579e+01,-1.968942497951891824e+02
9.918399999999999750e+01,-1.993099617054419355e+02
9.958400000000000318e+01,-2.016106397168264834e+02
9.999399999999999977e+01,-2.039688346801894454e+02
1.003640000000000043e+02,-2.060969618435960058e+02
1.007039999999999935e+02,-2.080525381570714387e+02
1.010840000000000032e+02,-2.102381822735599428e+02
1.013840000000000003e+02,-2.119636907875229497e+02
1.017740000000000009e+02,-2.142068518569879529e+02
1.021340000000000003e+02,-2.162774620763638893e+02
1.024240000000000066e+02,-2.179454536428106053e+02
1.028139999999999930e+02,-2.201886147163055227e+02
1.032139999999999986e+02,-2.224892927419539319e+02
1.036140000000000043e+02,-2.247899707691340723e+02
1.039440000000000026e+02,-2.266880301426983237e+02
1.044039999999999964e+02,-2.293338098774197817e+02
1.048340000000000032e+02,-2.318070387617150629e+02
1.052540000000000049e+02,-2.342227506969650221e+02
1.056440000000000055e+02,-2.364659117811927445e+02
1.060340000000000060e+02,-2.387090728670119120e+02
1.064240000000000066e+02,-2.409522339542734244e+02
1.068340000000000032e+02,-2.433104289450415934e+02
1.071539999999999964e+02,-2.451509713780293964e+02
1.074440000000000026e+02,-2.468189629587773481e+02
1.077840000000000060e+02,-2.487745392958334776e+02
1.080840000000000032e+02,-2.505000478295438597e+02
1.085439999999999969e+02,-2.531458275828785247e+02
1.088940000000000055e+02,-2.551589208748134752e+02
1.091940000000000026e+02,-2.568844294117906770e+02
1.095439999999999969e+02,-2.588975227059516442e+02
1.098439999999999941e+02,-2.606230312448326458e+02
1.101539999999999964e+02,-2.624060567358738467e+02
1.104939999999999998e+02,-2.643616330819805853e+02
1.108840000000000003e+02,-2.666047941863287178e+02
1.111940000000000026e+02,-2.683878196805131893e+02
1.115739999999999981e+02,-2.705734638360032704e+02
1.119440000000000026e+02,-2.727015910414259565e+02
1.123040000000000020e+02,-2.747722012965791691e+02
1.126539999999999964e+02,-2.767852946014398867e+02
1.129740000000000038e+02,-2.786258370526717272e+02
1.132939999999999969e+02,-2.804663795048547286e+02
1.136640000000000015e+02,-2.825945067165517344e+02
1.139440000000000026e+02,-2.842049813640443290e+02
1.143139999999999930e+02,-2.863331085780145031e+02
1.147240000000000038e+02,-2.886913036005237814e+02
1.150240000000000009e+02,-2.904168121545566237e+02
1.153239999999999981e+02,-2.921423207095446628e+02
1.156539999999999964e+02,-2.940403801209967014e+02
1.159639999999999986e+02,-2.958234056296798258e+02
1.163439999999999941e+02,-2.980090498029866808e+02
1.167039999999999935e+02,-3.000796600736894675e+02
1.170439999999999969e+02,-3.020352364416033311e+02
1.174039999999999964e+02,-3.041058467148249065e+02
1.177240000000000038e+02,-3.059463891809048164e+02
1.180739999999999981e+02,-3.079594825043968740e+02
1.184440000000000026e+02,-3.100876097333492112e+02
1.187339999999999947e+02,-3.117556013461269231e+02
1.190639999999999930e+02,-3.136536607686571188e+02
1.194440000000000026e+02,-3.141590000019109539e+02
1.197540000000000049e+02,-3.141590000029946168e+02
1.200540000000000020e+02,-3.141590000437678896e+02
1.205040000000000049e+02,-3.141590024325033141e+02
1.207939999999999969e+02,-3.141593298700625496e+02
1.211440000000000055e+02,-3.141590000685415021e+02
1.215340000000000060e+02,-3.141590000685943096e+02
1.218739999999999952e+02,-3.141590000001207841e+02
1.222139999999999986e+02,-3.141590093108098358e+02
1.225639999999999930e+02,-3.141590000019229478e+02
1.228439999999999941e+02,-3.141590024437873581e+02
1.232039999999999935e+02,-3.141590000000425107e+02
1.236039999999999992e+02,-3.141592122948432575e+02
1.239240000000000066e+02,-3.141590356393029992e+02
1.242840000000000060e+02,-3.141590000007832941e+02
1.245840000000000032e+02,-3.141590000115680823e+02
1.248840000000000003e+02,-3.141590001686047913e+02
1.252540000000000049e+02,-3.141590146365815599e+02
1.255739999999999981e+02,-3.141590024571367508e+02
1.258940000000000055e+02,-3.141590004124872735e+02
1.263640000000000043e+02,-3.141590002642358854e+02
1.266940000000000026e+02,-3.141590000047513058e+02
1.270240000000000009e+02,-3.141590000000739451e+02
1.274140000000000015e+02,-3.141590000000740019e+02
1.277039999999999935e+02,-3.141590000116408987e+02
1.280039999999999907e+02,-3.141590001696661147e+02
1.283139999999999930e+02,-3.141590002652774274e+02
1.286339999999999861e+02,-3.141590000445244186e+02
1.289240000000000066e+02,-3.141590060396015360e+02
1.292740000000000009e+02,-3.141590000012432711e+02
1.295440000000000111e+02,-3.141590147638342501e+02
1.298040000000000020e+02,-3.141590000446303748e+02
1.301140000000000043e+02,-3.141590000697859182e+02
1.304139999999999873e+02,-3.141590010163257034e+02
1.306539999999999964e+02,-3.141590002665421366e+02
1.309939999999999998e+02,-3.141590000005040793e+02
1.312439999999999998e+02,-3.141590000000026635e+02
1.315039999999999907e+02,-3.141590015915618892e+02
1.317839999999999918e+02,-3.141590000000436476e+02
1.320840000000000032e+02,-3.141590000007960839e+02
1.323540000000000134e+02,-3.141590095032042314e+02
1.327040000000000077e+02,-3.141590000019631930e+02
1.330140000000000100e+02,-3.141590000030761303e+02
1.333540000000000134e+02,-3.141592165290898606e+02
1.336539999999999964e+02,-3.141590000000751957e+02
1.339739999999999895e+02,-3.141590000000028340e+02
1.343240000000000123e+02,-3.141590001099937126e+02
1.346639999999999873e+02,-3.141590000002011038e+02
1.350540000000000020e+02,-3.141590000002013312e+02
1.353940000000000055e+02,-3.141590149422564764e+02
1.357239999999999895e+02,-3.141590002693385486e+02
1.360840000000000032e+02,-3.141589999999999918e+02
1.363739999999999952e+02,-3.141590000038750077e+02
1.366539999999999964e+02,-3.141590119848499398e+02
1.369540000000000077e+02,-3.141589999999976612e+02
1.372539999999999907e+02,-3.141590000003226919e+02
1.375639999999999930e+02,-3.141590000012649853e+02
1.378739999999999952e+02,-3.141590000048618094e+02
1.382239999999999895e+02,-3.141591119819348137e+02
1.385140000000000100e+02,-3.141590000008069978e+02
1.388340000000000032e+02,-3.141590000003238288e+02
1.392239999999999895e+02,-3.141590000010131689e+02
1.395339999999999918e+02,-3.141590000039005304e+02
1.398340000000000032e+02,-3.141590001390699740e+02
1.401639999999999873e+02,-3.141590000061091814e+02
1.404240000000000066e+02,-3.141590000000244913e+02
1.407340000000000089e+02,-3.141590000001262979e+02
1.410740000000000123e+02,-3.141590295293122495e+02
1.413240000000000123e+02,-3.141590016241835315e+02
1.416339999999999861e+02,-3.141590061998940655e+02
1.420339999999999918e+02,-3.141590020332530457e+02
1.423439999999999941e+02,-3.141590077614132497e+02
1.426140000000000043e+02,-3.141590000049101832e+02
1.429739999999999895e+02,-3.141590121433044374e+02
1.432439999999999998e+02,-3.141590000076889169e+02
1.435240000000000009e+02,-3.141590237449875076e+02
1.438439999999999941e+02,-3.141590097324116186e+02
1.441539999999999964e+02,-3.141590371509660145e+02
1.444739999999999895e+02,-3.141590152271751890e+02
1.448040000000000020e+02,-3.141590006701341622e+02
1.452040000000000077e+02,-3.141590002197651756e+02
1.454840000000000089e+02,-3.141590000000033456e+02
1.458040000000000020e+02,-3.141592777688025535e+02
1.461539999999999964e+02,-3.141590001409283559e+02
1.464339999999999975e+02,-3.141589999999980023e+02
1.467340000000000089e+02,-3.141590000003295700e+02
1.470639999999999930e+02,-3.141590000000034593e+02
1.473439999999999941e+02,-3.141590000462880994e+02
1.476639999999999873e+02,-3.141590000189655711e+02
1.479840000000000089e+02,-3.141590000077667355e+02
1.482340000000000089e+02,-3.141590000004163130e+02
1.485039999999999907e+02,-3.141590122864507748e+02
1.487940000000000111e+02,-3.141590000000782652e+02
1.490840000000000032e+02,-3.141590000297305210e+02
1.494039999999999964e+02,-3.141590000121790354e+02
1.497139999999999986e+02,-3.141590000465234311e+02
1.500240000000000009e+02,-3.141590001776256713e+02
1.503340000000000032e+02,-3.141590006780811564e+02
1.506839999999999975e+02,-3.141590000003325827e+02
1.512439999999999998e+02,-3.141590000000607574e+02
1.515639999999999930e+02,-3.141590000000181249e+02
1.519540000000000077e+02,-3.141590000000789473e+02
1.523839999999999861e+02,-3.141590016628427406e+02
1.528040000000000020e+02,-3.141590000062759600e+02
1.531939999999999884e+02,-3.141590000191927743e+02
1.534639999999999986e+02,-3.141590000000007308e+02
1.538040000000000020e+02,-3.141590026062285119e+02
1.541339999999999861e+02,-3.141590001146910254e+02
1.545039999999999907e+02,-3.141590303876256485e+02
1.548139999999999930e+02,-3.141591159995472253e+02
1.551339999999999861e+02,-3.141590475461995879e+02
1.556040000000000134e+02,-3.141591161999473343e+02
1.559639999999999986e+02,-3.141590000063195021e+02
1.563739999999999952e+02,-3.141590000002115062e+02
1.567539999999999907e+02,-3.141590000063304728e+02
1.571140000000000043e+02,-3.141590156475028834e+02
1.575740000000000123e+02,-3.141593561544371482e+02
1.580339999999999918e+02,-3.141590000001676231e+02
1.585440000000000111e+02,-3.141590026334429240e+02
1.588640000000000043e+02,-3.141590010794047885e+02
1.592139999999999986e+02,-3.141590000005363663e+02
1.595740000000000123e+02,-3.141590013513831536e+02
1.598640000000000043e+02,-3.141589999999985139e+02
1.602839999999999918e+02,-3.141590016918974015e+02
1.606839999999999975e+02,-3.141590005548800377e+02
1.609739999999999895e+02,-3.141591837272065959e+02
1.612839999999999918e+02,-3.141590000000041982e+02
1.616539999999999964e+02,-3.141590000040916948e+02
1.620740000000000123e+02,-3.141590000000041982e+02
1.624639999999999986e+02,-3.141590000000360874e+02
1.627740000000000009e+02,-3.141590000001696126e+02
1.630740000000000123e+02,-3.141590000064201149e+02
1.634139999999999873e+02,-3.141590000000190912e+02
1.637640000000000100e+02,-3.141590006983925036e+02
1.640639999999999930e+02,-3.141590248298878123e+02
1.644240000000000066e+02,-3.141590000013415533e+02
1.647539999999999907e+02,-3.141590000000483087e+02
1.651740000000000066e+02,-3.141590101956593344e+02
1.655140000000000100e+02,-3.141590000481707534e+02
1.658040000000000020e+02,-3.141590159534578106e+02
1.661539999999999964e+02,-3.141590000080839218e+02
1.664939999999999998e+02,-3.141590000000270493e+02
1.668139999999999930e+02,-3.141590000000044824e+02
1.671740000000000066e+02,-3.141590000386793236e+02
1.676639999999999873e+02,-3.141590000010789936e+02
1.681839999999999975e+02,-3.141590017222069946e+02
1.685740000000000123e+02,-3.141590052605097867e+02
1.688839999999999861e+02,-3.141590200817400955e+02
1.692839999999999918e+02,-3.141590065863096015e+02
1.697239999999999895e+02,-3.141590000002759666e+02
1.702640000000000100e+02,-3.141590000052183882e+02
1.705939999999999941e+02,-3.141590000002190095e+02
1.710039999999999907e+02,-3.141593670715164990e+02
1.713139999999999930e+02,-3.141590000000197733e+02
1.716440000000000055e+02,-3.141590616738401991e+02
1.720240000000000009e+02,-3.141590000000276177e+02
1.723739999999999952e+02,-3.141590008902584827e+02
1.727439999999999998e+02,-3.141592358670961858e+02
1.731040000000000134e+02,-3.141590000128400675e+02
1.735039999999999907e+02,-3.141590000042037900e+02
1.740240000000000009e+02,-3.141590066584820988e+02
1.744739999999999895e+02,-3.141590000000200575e+02
1.748839999999999861e+02,-3.141590497096919421e+02
1.752439999999999998e+02,-3.141590000026973826e+02
1.755939999999999941e+02,-3.141590622398850314e+02
1.759739999999999895e+02,-3.141590000000280156e+02
1.762640000000000100e+02,-3.141590000129347118e+02
1.765740000000000123e+02,-3.141590000494094852e+02
1.769240000000000066e+02,-3.141590000000140321e+02
1.772740000000000009e+02,-3.141590005762762985e+02
1.776140000000000043e+02,-3.141590000027123892e+02
1.779439999999999884e+02,-3.141590000001088470e+02
1.782839999999999918e+02,-3.141590256539122947e+02
1.787940000000000111e+02,-3.141590000083234031e+02
1.790740000000000123e+02,-3.141590257015438397e+02
1.794339999999999975e+02,-3.141590000013893587e+02
1.797940000000000111e+02,-3.141590034553699411e+02
1.802239999999999895e+02,-3.141590000013919735e+02
1.805740000000000123e+02,-3.141590322407467397e+02
1.810140000000000100e+02,-3.141590000013945883e+02
1.815540000000000020e+02,-3.141590000255901032e+02
1.819639999999999986e+02,-3.141590000008906145e+02
1.823940000000000055e+02,-3.141590165784205055e+02
1.828040000000000020e+02,-3.141590005838382353e+02
1.832139999999999986e+02,-3.141590000205507067e+02
1.837139999999999986e+02,-3.141590000000512646e+02
1.841740000000000066e+02,-3.141590000014052748e+02
1.845639999999999930e+02,-3.141590000043149757e+02
1.850339999999999918e+02,-3.141590000105624085e+02
1.854939999999999998e+02,-3.141590002406711619e+02
1.858540000000000134e+02,-3.141590000000022087e+02
